#log interval=0.01,world length_x=228.266,world length_y=53.4641,world length_z=54,voxel radius=1e-08,[/Surface:MinEE][3]=1e-08,[/Surface:MinD][4]=1e-08,[/Surface:MinDEE][5]=1e-08,[/Surface:MinDEED][6]=1e-08
1e-100,0,0,700,0
0.01,8,0,692,0
0.02,16,0,684,0
0.03,24,0,676,0
0.04,26,0,674,0
0.05,29,0,670,0
0.06,41,0,658,0
0.07,45,1,654,0
0.08,53,2,645,0
0.09,59,2,638,0
0.1,64,3,633,0
0.11,72,3,624,0
0.12,79,4,617,0
0.13,86,4,610,0
0.14,93,4,603,0
0.15,101,6,595,0
0.16,105,7,590,0
0.17,113,9,580,0
0.18,119,9,573,0
0.19,126,10,565,0
0.2,134,13,556,0
0.21,141,15,549,0
0.22,145,19,544,0
0.23,147,23,541,0
0.24,149,29,537,0
0.25,156,35,529,0
0.26,159,37,525,0
0.27,164,42,519,0
0.28,168,44,514,0
0.29,168,46,510,0
0.3,170,52,507,0
0.31,176,60,500,0
0.32,183,71,493,0
0.33,181,76,492,0
0.34,188,86,484,0
0.35,186,94,484,0
0.36,187,101,483,0
0.37,192,109,480,0
0.38,198,125,476,0
0.39,202,136,474,1
0.4,206,152,472,1
0.41,209,171,471,1
0.42,212,184,467,1
0.43,213,201,464,4
0.44,215,219,462,4
0.45,216,249,463,5
0.46,219,279,459,6
0.47,218,305,455,6
0.48,218,334,456,6
0.49,222,360,455,7
0.5,225,398,449,8
0.51,229,421,450,7
0.52,233,449,444,9
0.53,236,470,439,10
0.54,240,499,436,11
0.55,241,536,435,12
0.56,242,567,435,13
0.57,242,611,431,17
0.58,248,642,425,16
0.59,249,677,423,17
0.6,251,722,423,17
0.61,251,756,422,19
0.62,255,791,418,21
0.63,260,815,413,21
0.64,261,837,415,21
0.65,266,866,409,23
0.66,269,900,405,23
0.67,277,931,396,25
0.68,280,968,391,26
0.69,281,1000,389,26
0.7,287,1028,379,29
0.71,293,1062,374,30
0.72,294,1082,371,33
0.73,295,1105,368,34
0.74,295,1136,367,35
0.75,299,1160,364,36
0.76,299,1175,359,39
0.77,297,1194,360,39
0.78,297,1209,361,39
0.79,296,1219,357,41
0.8,295,1229,358,43
0.81,299,1246,355,43
0.820000000000001,305,1260,349,43
0.830000000000001,308,1267,343,46
0.840000000000001,312,1282,337,48
0.850000000000001,312,1299,337,48
0.860000000000001,309,1308,339,48
0.870000000000001,307,1318,342,46
0.880000000000001,305,1324,345,45
0.890000000000001,306,1332,344,45
0.900000000000001,306,1345,342,47
0.910000000000001,304,1349,346,46
0.920000000000001,306,1354,343,48
0.930000000000001,306,1363,344,48
0.940000000000001,308,1369,340,51
0.950000000000001,306,1381,336,53
0.960000000000001,304,1384,339,53
0.970000000000001,305,1387,339,53
0.980000000000001,307,1394,333,55
0.990000000000001,303,1394,336,56
1,306,1399,330,59
1.01,307,1404,327,59
1.02,307,1406,326,61
1.03,305,1406,328,61
1.04,305,1414,326,62
1.05,306,1414,325,61
1.06,308,1417,326,62
1.07,307,1417,325,65
1.08,308,1416,322,67
1.09,308,1422,321,69
1.1,306,1425,322,69
1.11,308,1425,317,72
1.12,310,1426,312,75
1.13,310,1425,309,76
1.14,314,1423,307,75
1.15,314,1426,306,75
1.16,319,1422,299,79
1.17,321,1423,293,82
1.18,322,1427,292,81
1.19,328,1425,286,82
1.2,326,1427,286,84
1.21,328,1426,284,84
1.22,331,1421,279,86
1.23,335,1420,274,88
1.24,332,1423,272,91
1.25,334,1428,270,91
1.26,336,1426,267,92
1.27,333,1423,268,93
1.28,334,1423,269,93
1.29,335,1419,269,94
1.3,339,1417,262,96
1.31,336,1419,261,97
1.32,337,1416,259,100
1.33,338,1411,255,103
1.34,338,1417,253,103
1.35,339,1411,253,106
1.36,337,1410,255,105
1.37,333,1411,253,107
1.38,332,1412,257,106
1.39,333,1411,254,109
1.4,330,1413,258,108
1.41,328,1412,259,109
1.42,324,1413,261,109
1.43,326,1410,260,109
1.44,330,1408,257,110
1.45,330,1409,254,112
1.46,329,1408,255,114
1.47,332,1407,252,114
1.48,330,1405,256,110
1.49,330,1402,252,113
1.5,333,1399,249,115
1.51,333,1403,253,114
1.52,337,1407,249,113
1.53,338,1408,249,111
1.54,340,1409,246,112
1.55,340,1410,246,112
1.56,339,1410,246,113
1.57,339,1406,244,114
1.58,338,1406,246,113
1.59,336,1405,249,110
1.6,332,1400,250,112
1.61,328,1395,256,112
1.62,331,1393,253,113
1.63,330,1400,254,114
1.64,331,1402,251,116
1.65,332,1407,252,115
1.66,333,1409,250,116
1.67,332,1412,250,116
1.68,332,1409,249,117
1.69,335,1411,248,116
1.7,334,1412,246,117
1.71,332,1408,248,118
1.72,330,1406,251,116
1.73,330,1410,249,115
1.74,334,1409,247,115
1.75,333,1410,246,116
1.76,335,1414,244,115
1.77,336,1414,243,115
1.78,335,1413,244,116
1.79,336,1411,242,116
1.8,332,1407,242,119
1.81,332,1404,239,124
1.82,334,1404,240,122
1.83,336,1404,240,121
1.84,335,1404,238,122
1.85,332,1401,243,122
1.86,332,1405,244,122
1.87,330,1406,244,123
1.88,328,1406,250,119
1.89,330,1411,249,118
1.9,330,1410,250,117
1.91,326,1409,248,120
1.92,328,1407,244,122
1.93,326,1408,249,120
1.94,328,1407,248,120
1.95,323,1406,255,118
1.96,321,1406,253,121
1.97,317,1405,254,122
1.98,319,1402,254,120
1.99,321,1396,254,123
2,319,1393,254,124
2.01,312,1388,259,125
2.02,314,1392,260,124
2.03,314,1388,259,126
2.04,314,1389,258,127
2.05,313,1390,259,126
2.06,312,1386,261,125
2.07,313,1388,259,124
2.08,314,1386,261,123
2.09,314,1387,262,121
2.1,316,1390,261,121
2.11,316,1390,261,122
2.12,315,1389,262,123
2.13,314,1390,263,121
2.14,315,1390,263,121
2.15,315,1395,263,120
2.16,313,1391,265,121
2.17,313,1390,263,122
2.18,312,1392,264,120
2.19,312,1396,268,117
2.2,312,1396,271,115
2.21,310,1397,268,117
2.22,312,1394,271,116
2.23,309,1391,273,117
2.24,306,1394,274,116
2.25,307,1390,273,118
2.26,309,1392,269,120
2.27,311,1394,268,120
2.28,310,1394,269,120
2.29,311,1396,271,118
2.29999999999999,309,1395,270,119
2.30999999999999,307,1396,270,119
2.31999999999999,306,1398,273,118
2.32999999999999,306,1394,272,119
2.33999999999999,304,1397,270,121
2.34999999999999,305,1402,268,121
2.35999999999999,303,1397,265,126
2.36999999999999,303,1397,267,126
2.37999999999999,303,1392,265,128
2.38999999999999,302,1388,265,129
2.39999999999999,302,1385,266,130
2.40999999999999,301,1385,267,129
2.41999999999999,300,1383,266,129
2.42999999999999,301,1383,263,129
2.43999999999999,298,1381,267,128
2.44999999999999,299,1384,266,127
2.45999999999999,299,1381,272,127
2.46999999999999,301,1381,271,127
2.47999999999999,303,1383,267,128
2.48999999999999,305,1382,267,126
2.49999999999999,309,1381,263,127
2.50999999999999,307,1382,265,126
2.51999999999999,306,1379,267,126
2.52999999999999,309,1380,258,130
2.53999999999999,306,1378,260,129
2.54999999999999,303,1378,263,129
2.55999999999999,305,1378,261,128
2.56999999999999,306,1374,265,128
2.57999999999999,306,1373,268,126
2.58999999999999,308,1377,269,122
2.59999999999999,308,1374,266,125
2.60999999999999,306,1372,270,122
2.61999999999999,314,1378,260,124
2.62999999999999,315,1383,257,124
2.63999999999999,316,1383,258,124
2.64999999999999,317,1379,254,126
2.65999999999999,311,1382,263,119
2.66999999999999,309,1377,267,120
2.67999999999999,311,1375,267,120
2.68999999999999,313,1379,265,120
2.69999999999999,311,1385,266,120
2.70999999999999,312,1383,267,119
2.71999999999999,312,1383,266,119
2.72999999999999,310,1379,267,120
2.73999999999999,307,1378,270,121
2.74999999999999,306,1377,274,119
2.75999999999999,308,1377,272,120
2.76999999999998,310,1376,268,122
2.77999999999998,309,1377,267,123
2.78999999999998,309,1381,267,123
2.79999999999998,308,1380,267,123
2.80999999999998,312,1380,262,124
2.81999999999998,315,1383,261,121
2.82999999999998,313,1383,264,120
2.83999999999998,310,1380,266,120
2.84999999999998,310,1381,266,120
2.85999999999998,311,1379,267,121
2.86999999999998,308,1380,266,123
2.87999999999998,306,1375,269,123
2.88999999999998,309,1378,265,123
2.89999999999998,308,1382,263,123
2.90999999999998,308,1377,269,120
2.91999999999998,306,1380,270,119
2.92999999999998,304,1376,274,119
2.93999999999998,302,1375,273,122
2.94999999999998,303,1376,274,122
2.95999999999998,306,1373,269,125
2.96999999999998,306,1371,263,128
2.97999999999998,304,1372,264,129
2.98999999999998,305,1372,261,131
2.99999999999998,305,1373,262,130
3.00999999999998,305,1374,260,132
3.01999999999998,304,1377,260,132
3.02999999999998,302,1373,260,134
3.03999999999998,304,1373,260,134
3.04999999999998,304,1372,261,133
3.05999999999998,307,1374,258,133
3.06999999999998,308,1381,260,130
3.07999999999998,307,1379,260,133
3.08999999999998,307,1380,254,136
3.09999999999998,307,1380,256,133
3.10999999999998,307,1380,257,133
3.11999999999998,304,1380,259,132
3.12999999999998,306,1379,257,132
3.13999999999998,306,1376,259,133
3.14999999999998,307,1374,260,132
3.15999999999998,306,1374,263,130
3.16999999999998,308,1376,261,130
3.17999999999998,305,1373,262,131
3.18999999999998,307,1373,262,128
3.19999999999998,310,1373,257,131
3.20999999999998,311,1372,257,130
3.21999999999998,308,1368,260,131
3.22999999999998,310,1368,260,129
3.23999999999997,313,1368,254,132
3.24999999999997,311,1366,252,134
3.25999999999997,310,1367,252,134
3.26999999999997,312,1364,251,133
3.27999999999997,313,1363,252,133
3.28999999999997,316,1364,248,133
3.29999999999997,319,1366,247,133
3.30999999999997,321,1368,245,133
3.31999999999997,322,1368,241,136
3.32999999999997,322,1368,239,136
3.33999999999997,322,1370,240,135
3.34999999999997,323,1369,240,134
3.35999999999997,321,1371,237,136
3.36999999999997,322,1366,238,138
3.37999999999997,325,1362,235,140
3.38999999999997,326,1366,235,139
3.39999999999997,326,1370,233,140
3.40999999999997,325,1373,234,139
3.41999999999997,328,1374,232,137
3.42999999999997,328,1376,232,137
3.43999999999997,325,1378,231,139
3.44999999999997,325,1382,228,140
3.45999999999997,323,1380,230,141
3.46999999999997,322,1376,232,141
3.47999999999997,324,1377,233,140
3.48999999999997,327,1379,227,143
3.49999999999997,327,1380,230,142
3.50999999999997,323,1381,233,141
3.51999999999997,320,1378,240,139
3.52999999999997,322,1377,238,140
3.53999999999997,319,1379,239,139
3.54999999999997,315,1379,240,139
3.55999999999997,316,1380,242,138
3.56999999999997,315,1380,242,139
3.57999999999997,310,1379,250,136
3.58999999999997,312,1378,248,136
3.59999999999997,310,1379,252,134
3.60999999999997,305,1375,256,135
3.61999999999997,305,1372,255,137
3.62999999999997,305,1374,252,139
3.63999999999997,307,1374,251,139
3.64999999999997,307,1373,251,141
3.65999999999997,308,1372,252,140
3.66999999999997,310,1376,251,139
3.67999999999997,310,1377,251,138
3.68999999999997,311,1376,250,138
3.69999999999997,312,1375,249,139
3.70999999999996,313,1375,247,140
3.71999999999996,313,1378,249,138
3.72999999999996,309,1379,248,137
3.73999999999996,306,1376,255,137
3.74999999999996,308,1375,252,139
3.75999999999996,313,1375,247,140
3.76999999999996,315,1379,248,137
3.77999999999996,311,1378,251,137
3.78999999999996,311,1378,250,138
3.79999999999996,310,1377,250,138
3.80999999999996,309,1377,249,140
3.81999999999996,309,1375,251,139
3.82999999999996,306,1378,251,139
3.83999999999996,305,1372,251,142
3.84999999999996,305,1369,252,142
3.85999999999996,304,1367,253,142
3.86999999999996,306,1367,250,144
3.87999999999996,306,1364,248,146
3.88999999999996,304,1364,249,147
3.89999999999996,308,1365,248,144
3.90999999999996,311,1367,243,145
3.91999999999996,311,1367,245,144
3.92999999999996,311,1368,243,146
3.93999999999996,309,1366,244,146
3.94999999999996,310,1368,243,145
3.95999999999996,313,1370,239,146
3.96999999999996,311,1370,241,145
3.97999999999996,311,1370,241,145
3.98999999999996,311,1372,242,144
3.99999999999996,311,1377,240,144
4.00999999999996,309,1373,242,146
4.01999999999996,308,1375,242,147
4.02999999999996,307,1372,244,145
4.03999999999996,309,1375,242,144
4.04999999999996,307,1371,249,141
4.05999999999996,306,1375,253,138
4.06999999999996,307,1371,251,141
4.07999999999996,307,1369,250,142
4.08999999999996,309,1374,248,142
4.09999999999996,307,1375,253,138
4.10999999999996,307,1379,254,137
4.11999999999996,310,1379,251,138
4.12999999999996,313,1383,246,139
4.13999999999996,317,1383,244,138
4.14999999999996,320,1385,243,137
4.15999999999996,319,1385,241,137
4.16999999999996,317,1384,240,137
4.17999999999996,316,1379,239,138
4.18999999999996,318,1377,236,141
4.19999999999995,316,1377,234,142
4.20999999999995,319,1376,231,143
4.21999999999995,321,1374,231,142
4.22999999999995,322,1370,234,143
4.23999999999995,324,1372,233,143
4.24999999999995,321,1372,233,143
4.25999999999995,323,1378,232,143
4.26999999999995,322,1381,232,143
4.27999999999995,320,1379,234,142
4.28999999999995,323,1375,233,143
4.29999999999995,325,1380,233,141
4.30999999999995,324,1376,233,142
4.31999999999995,322,1380,236,139
4.32999999999995,322,1380,239,138
4.33999999999995,324,1387,236,139
4.34999999999995,325,1392,237,137
4.35999999999995,324,1388,235,140
4.36999999999995,327,1390,234,139
4.37999999999995,327,1390,234,139
4.38999999999995,329,1392,231,139
4.39999999999995,331,1395,231,138
4.40999999999995,335,1397,227,138
4.41999999999995,334,1401,231,134
4.42999999999995,334,1401,229,134
4.43999999999995,338,1403,227,134
4.44999999999995,336,1401,228,135
4.45999999999995,338,1402,225,134
4.46999999999995,339,1403,227,131
4.47999999999995,336,1404,229,131
4.48999999999995,338,1404,228,131
4.49999999999995,339,1401,226,133
4.50999999999995,334,1400,228,133
4.51999999999995,331,1395,234,131
4.52999999999995,329,1395,236,131
4.53999999999995,327,1391,237,132
4.54999999999995,328,1389,237,133
4.55999999999995,328,1388,236,133
4.56999999999995,327,1392,237,132
4.57999999999995,330,1392,236,131
4.58999999999995,329,1396,238,131
4.59999999999995,327,1398,241,130
4.60999999999995,327,1392,237,133
4.61999999999995,329,1397,239,130
4.62999999999995,329,1398,237,130
4.63999999999995,331,1395,238,129
4.64999999999995,329,1396,239,131
4.65999999999995,328,1398,244,128
4.66999999999994,325,1396,243,130
4.67999999999994,322,1395,244,130
4.68999999999994,322,1395,245,131
4.69999999999994,322,1396,244,130
4.70999999999994,322,1397,244,131
4.71999999999994,323,1399,243,131
4.72999999999994,322,1397,244,129
4.73999999999994,321,1393,246,130
4.74999999999994,323,1394,243,131
4.75999999999994,327,1393,237,131
4.76999999999994,329,1395,237,131
4.77999999999994,327,1392,241,131
4.78999999999994,328,1394,242,129
4.79999999999994,330,1392,239,130
4.80999999999994,328,1389,240,131
4.81999999999994,330,1392,240,130
4.82999999999994,333,1394,237,130
4.83999999999994,336,1395,232,131
4.84999999999994,335,1397,232,131
4.85999999999994,333,1398,236,128
4.86999999999994,329,1394,242,127
4.87999999999994,326,1397,243,126
4.88999999999994,327,1393,243,126
4.89999999999994,333,1392,238,128
4.90999999999994,332,1396,237,128
4.91999999999994,330,1390,238,129
4.92999999999994,333,1389,237,128
4.93999999999994,326,1384,240,129
4.94999999999994,325,1383,241,129
4.95999999999994,328,1383,238,130
4.96999999999994,327,1385,239,131
4.97999999999994,324,1383,242,132
4.98999999999994,324,1384,243,131
4.99999999999994,322,1386,242,133
5.00999999999994,323,1386,240,133
5.01999999999994,323,1388,239,134
5.02999999999994,319,1390,244,133
5.03999999999994,317,1388,244,134
5.04999999999994,316,1386,248,134
5.05999999999994,319,1391,244,135
5.06999999999994,319,1389,241,137
5.07999999999994,318,1386,245,136
5.08999999999994,322,1388,245,133
5.09999999999994,322,1394,245,131
5.10999999999994,321,1390,242,134
5.11999999999994,321,1387,245,134
5.12999999999994,321,1389,247,131
5.13999999999993,318,1392,249,131
5.14999999999993,316,1393,249,131
5.15999999999993,317,1390,251,130
5.16999999999993,319,1387,248,131
5.17999999999993,314,1386,253,132
5.18999999999993,318,1386,250,131
5.19999999999993,318,1384,246,134
5.20999999999993,319,1385,242,136
5.21999999999993,322,1384,241,137
5.22999999999993,319,1386,239,139
5.23999999999993,317,1380,242,139
5.24999999999993,316,1382,243,138
5.25999999999993,314,1379,249,136
5.26999999999993,309,1381,249,136
5.27999999999993,310,1378,250,136
5.28999999999993,310,1375,247,140
5.29999999999993,312,1373,246,141
5.30999999999993,310,1374,248,141
5.31999999999993,308,1371,248,143
5.32999999999993,305,1373,252,140
5.33999999999993,306,1370,248,143
5.34999999999993,305,1366,248,144
5.35999999999993,306,1367,249,145
5.36999999999993,306,1370,247,145
5.37999999999993,302,1367,249,146
5.38999999999993,303,1362,250,146
5.39999999999993,303,1361,251,146
5.40999999999993,303,1361,251,145
5.41999999999993,302,1364,251,145
5.42999999999993,300,1364,254,144
5.43999999999993,300,1365,256,142
5.44999999999993,302,1369,252,142
5.45999999999993,300,1369,253,141
5.46999999999993,301,1364,257,141
5.47999999999993,300,1364,257,141
5.48999999999993,299,1364,260,141
5.49999999999993,295,1366,261,142
5.50999999999993,290,1365,261,144
5.51999999999993,292,1361,257,148
5.52999999999993,294,1359,254,149
5.53999999999993,292,1356,258,148
5.54999999999993,291,1357,259,148
5.55999999999993,296,1353,252,151
5.56999999999993,297,1355,253,149
5.57999999999993,305,1359,244,150
5.58999999999993,303,1361,246,150
5.59999999999993,307,1363,243,148
5.60999999999992,304,1359,246,148
5.61999999999992,305,1358,246,148
5.62999999999992,306,1360,246,145
5.63999999999992,308,1359,246,144
5.64999999999992,309,1358,245,144
5.65999999999992,309,1356,243,145
5.66999999999992,307,1356,245,144
5.67999999999992,308,1355,244,143
5.68999999999992,307,1352,246,145
5.69999999999992,304,1350,251,143
5.70999999999992,304,1353,252,142
5.71999999999992,306,1357,252,141
5.72999999999992,303,1354,255,141
5.73999999999992,302,1354,254,141
5.74999999999992,307,1351,254,138
5.75999999999992,307,1351,254,138
5.76999999999992,307,1355,252,139
5.77999999999992,306,1356,253,138
5.78999999999992,306,1358,252,139
5.79999999999992,305,1356,254,138
5.80999999999992,307,1358,252,137
5.81999999999992,309,1360,253,136
5.82999999999992,308,1361,250,138
5.83999999999992,308,1360,252,136
5.84999999999992,308,1354,254,137
5.85999999999992,304,1353,254,139
5.86999999999992,305,1352,259,135
5.87999999999992,304,1355,260,135
5.88999999999992,303,1358,260,134
5.89999999999992,303,1360,257,136
5.90999999999992,301,1361,257,136
5.91999999999992,302,1361,258,135
5.92999999999992,302,1356,259,137
5.93999999999992,302,1353,259,138
5.94999999999992,297,1354,259,138
5.95999999999992,291,1350,269,136
5.96999999999992,291,1345,271,138
5.97999999999992,288,1344,272,137
5.98999999999992,292,1349,267,137
5.99999999999992,289,1351,272,135
6.00999999999992,288,1354,270,135
6.01999999999992,291,1351,274,133
6.02999999999992,289,1351,275,133
6.03999999999992,285,1355,278,132
6.04999999999992,293,1358,274,130
6.05999999999992,295,1357,272,130
6.06999999999992,298,1358,270,130
6.07999999999991,299,1356,268,132
6.08999999999991,303,1358,263,133
6.09999999999991,304,1359,263,131
6.10999999999991,304,1360,263,130
6.11999999999991,304,1362,266,129
6.12999999999991,307,1364,263,129
6.13999999999991,307,1365,264,128
6.14999999999991,305,1362,265,129
6.15999999999991,312,1363,257,130
6.16999999999991,315,1366,252,131
6.17999999999991,317,1370,253,129
6.18999999999991,322,1371,251,126
6.19999999999991,318,1374,253,124
6.20999999999991,312,1371,260,123
6.21999999999991,311,1369,265,122
6.22999999999991,310,1372,264,124
6.23999999999991,314,1372,259,123
6.24999999999991,313,1366,263,123
6.25999999999991,315,1367,263,121
6.26999999999991,316,1374,263,120
6.27999999999991,316,1373,265,117
6.28999999999991,318,1380,264,117
6.29999999999991,320,1378,259,119
6.30999999999991,319,1375,259,119
6.31999999999991,314,1374,267,117
6.32999999999991,311,1370,267,118
6.33999999999991,310,1368,270,117
6.34999999999991,312,1367,268,117
6.35999999999991,312,1365,270,117
6.36999999999991,313,1365,266,119
6.37999999999991,310,1366,265,121
6.38999999999991,311,1365,266,122
6.39999999999991,310,1369,267,121
6.40999999999991,308,1374,265,121
6.41999999999991,313,1373,259,123
6.42999999999991,313,1372,260,123
6.43999999999991,313,1374,261,123
6.44999999999991,314,1375,261,123
6.45999999999991,313,1372,258,125
6.46999999999991,312,1375,259,125
6.47999999999991,313,1372,258,126
6.48999999999991,315,1371,261,123
6.49999999999991,316,1368,258,125
6.50999999999991,313,1366,259,125
6.51999999999991,315,1365,259,126
6.52999999999991,314,1365,256,128
6.53999999999991,313,1364,259,126
6.5499999999999,313,1366,257,128
6.5599999999999,315,1366,255,129
6.5699999999999,315,1370,251,132
6.5799999999999,312,1371,253,133
6.5899999999999,312,1369,251,136
6.5999999999999,308,1362,248,141
6.6099999999999,309,1361,249,137
6.6199999999999,309,1362,251,135
6.6299999999999,310,1367,253,133
6.6399999999999,308,1365,255,134
6.6499999999999,309,1366,254,133
6.6599999999999,309,1367,254,134
