#log interval=0.01,world length_x=228.266,world length_y=53.4641,world length_z=54,voxel radius=1e-08,[/Surface:MinEE][3]=1e-08,[/Surface:MinD][4]=1e-08,[/Surface:MinDEE][5]=1e-08,[/Surface:MinDEED][6]=1e-08
1e-100,0,0,700,0
0.01,8,0,692,0
0.02,15,0,685,0
0.03,24,0,676,0
0.04,32,0,668,0
0.05,40,0,660,0
0.06,44,1,656,0
0.07,54,1,645,0
0.08,57,1,641,0
0.09,63,2,635,0
0.1,67,3,630,0
0.11,74,3,623,0
0.12,83,3,614,0
0.13,88,3,609,0
0.14,89,3,606,0
0.15,90,5,605,0
0.16,96,8,598,0
0.17,100,11,593,0
0.18,101,12,592,0
0.19,108,13,583,0
0.2,114,14,577,0
0.21,121,15,570,0
0.22,126,17,564,0
0.23,131,18,559,0
0.24,136,18,555,0
0.25,144,23,544,0
0.26,145,24,541,0
0.27,149,26,536,0
0.28,155,29,530,0
0.29,164,34,522,0
0.3,165,39,519,0
0.31,173,43,511,0
0.32,177,50,505,0
0.33,183,59,499,0
0.34,190,65,491,0
0.35,192,76,488,0
0.36,192,84,487,1
0.37,193,93,486,1
0.38,197,100,481,1
0.39,199,110,478,2
0.4,204,122,474,2
0.41,206,136,472,3
0.42,212,150,466,3
0.43,213,164,464,4
0.44,218,182,462,4
0.45,222,188,461,5
0.46,225,208,458,5
0.47,227,228,456,6
0.48,224,247,455,6
0.49,230,269,449,6
0.5,236,292,445,6
0.51,237,315,447,7
0.52,236,345,444,8
0.53,239,378,438,9
0.54,238,410,436,9
0.55,238,438,435,9
0.56,246,465,429,9
0.57,252,493,427,10
0.58,252,524,425,13
0.59,255,558,419,16
0.6,258,606,417,17
0.61,260,638,416,17
0.62,263,675,411,20
0.63,265,717,407,21
0.64,266,765,405,23
0.65,268,805,403,23
0.66,274,844,398,24
0.67,278,890,394,24
0.68,279,926,394,24
0.69,281,947,390,26
0.7,284,980,385,27
0.71,282,1014,383,27
0.72,282,1037,380,28
0.73,284,1064,379,30
0.74,286,1092,375,33
0.75,282,1120,374,34
0.76,281,1144,374,36
0.77,280,1161,370,40
0.78,281,1189,369,42
0.79,286,1211,363,44
0.8,290,1227,359,45
0.81,290,1246,357,46
0.820000000000001,294,1259,352,48
0.830000000000001,298,1274,350,49
0.840000000000001,298,1294,347,50
0.850000000000001,297,1309,351,48
0.860000000000001,300,1318,348,47
0.870000000000001,298,1326,350,48
0.880000000000001,297,1334,352,47
0.890000000000001,296,1348,352,49
0.900000000000001,296,1352,352,50
0.910000000000001,296,1364,352,50
0.920000000000001,298,1363,344,55
0.930000000000001,298,1370,344,56
0.940000000000001,300,1376,339,59
0.950000000000001,303,1379,336,59
0.960000000000001,304,1381,334,60
0.970000000000001,300,1389,336,61
0.980000000000001,301,1391,330,65
0.990000000000001,300,1392,328,66
1,301,1398,328,67
1.01,301,1396,328,69
1.02,305,1397,324,69
1.03,308,1405,321,69
1.04,312,1407,316,69
1.05,312,1408,315,71
1.06,314,1412,315,70
1.07,317,1414,311,70
1.08,318,1418,312,68
1.09,317,1420,311,69
1.1,317,1425,312,67
1.11,321,1423,306,70
1.12,320,1424,306,72
1.13,321,1430,305,73
1.14,324,1433,300,76
1.15,323,1434,299,77
1.16,319,1436,303,75
1.17,319,1434,301,78
1.18,318,1434,298,80
1.19,319,1441,297,80
1.2,317,1439,298,83
1.21,316,1437,295,85
1.22,317,1435,294,86
1.23,319,1436,294,85
1.24,318,1434,294,85
1.25,316,1435,293,85
1.26,316,1435,294,86
1.27,317,1432,293,87
1.28,317,1429,293,88
1.29,316,1426,294,89
1.3,315,1424,296,88
1.31,317,1424,293,89
1.32,317,1420,286,93
1.33,320,1420,282,95
1.34,319,1421,280,96
1.35,317,1416,282,96
1.36,317,1414,282,96
1.37,314,1413,286,95
1.38,314,1413,284,96
1.39,312,1408,287,98
1.4,314,1407,286,99
1.41,318,1413,283,98
1.42,319,1414,278,101
1.43,320,1417,276,101
1.44,319,1421,278,99
1.45,321,1418,278,97
1.46,322,1416,280,97
1.47,322,1414,276,99
1.48,327,1416,271,100
1.49,325,1420,271,101
1.5,323,1424,272,100
1.51,321,1421,274,101
1.52,320,1423,271,105
1.53,321,1422,275,102
1.54,321,1420,274,104
1.55,318,1420,274,104
1.56,318,1416,272,107
1.57,317,1412,271,108
1.58,318,1412,273,107
1.59,312,1413,275,109
1.6,313,1413,275,108
1.61,313,1410,273,110
1.62,308,1410,274,111
1.63,308,1405,275,113
1.64,308,1402,277,113
1.65,309,1408,279,112
1.66,310,1409,277,112
1.67,312,1410,278,110
1.68,313,1412,274,112
1.69,313,1410,272,114
1.7,312,1405,271,116
1.71,309,1402,272,116
1.72,308,1403,274,113
1.73,310,1402,277,112
1.74,310,1402,275,113
1.75,311,1403,272,113
1.76,314,1404,270,114
1.77,312,1402,267,116
1.78,313,1400,267,116
1.79,313,1401,266,117
1.8,313,1401,265,117
1.81,313,1398,266,116
1.82,310,1396,266,117
1.83,309,1394,267,117
1.84,309,1394,268,118
1.85,308,1393,272,116
1.86,307,1392,272,117
1.87,304,1391,274,119
1.88,305,1394,273,119
1.89,310,1391,269,119
1.9,310,1393,268,119
1.91,310,1395,270,118
1.92,308,1395,271,119
1.93,309,1401,270,119
1.94,309,1400,269,119
1.95,308,1398,266,121
1.96,309,1396,270,117
1.97,313,1401,267,117
1.98,311,1399,266,119
1.99,311,1397,263,121
2,310,1392,268,121
2.01,313,1390,267,119
2.02,309,1390,267,122
2.03,310,1392,265,122
2.04,307,1386,268,122
2.05,307,1384,269,122
2.06,304,1381,268,123
2.07,299,1379,270,123
2.08,301,1377,273,122
2.09,304,1376,270,123
2.1,305,1378,274,120
2.11,303,1380,275,121
2.12,301,1383,277,120
2.13,303,1381,274,120
2.14,304,1377,275,120
2.15,301,1380,278,118
2.16,303,1377,274,121
2.17,300,1373,278,120
2.18,300,1374,278,121
2.19,301,1376,278,121
2.2,299,1372,278,122
2.21,303,1373,274,121
2.22,304,1373,275,121
2.23,304,1376,275,120
2.24,308,1374,272,119
2.25,312,1377,268,119
2.26,310,1378,269,118
2.27,308,1375,269,120
2.28,306,1375,270,119
2.29,311,1380,266,118
2.29999999999999,309,1379,270,118
2.30999999999999,309,1378,266,123
2.31999999999999,308,1376,268,124
2.32999999999999,308,1377,267,124
2.33999999999999,309,1377,265,126
2.34999999999999,306,1374,264,127
2.35999999999999,305,1375,264,129
2.36999999999999,308,1372,263,129
2.37999999999999,306,1375,266,125
2.38999999999999,308,1375,262,127
2.39999999999999,311,1377,261,126
2.40999999999999,313,1377,262,124
2.41999999999999,312,1379,263,124
2.42999999999999,309,1380,263,126
2.43999999999999,311,1380,258,129
2.44999999999999,305,1386,259,129
2.45999999999999,307,1387,262,128
2.46999999999999,308,1392,261,128
2.47999999999999,312,1394,258,127
2.48999999999999,306,1393,264,125
2.49999999999999,307,1394,264,126
2.50999999999999,304,1395,267,125
2.51999999999999,298,1384,266,130
2.52999999999999,298,1380,267,130
2.53999999999999,300,1381,267,130
2.54999999999999,298,1382,268,129
2.55999999999999,299,1380,265,132
2.56999999999999,300,1378,264,133
2.57999999999999,303,1375,263,132
2.58999999999999,301,1377,267,130
2.59999999999999,302,1380,266,130
2.60999999999999,303,1382,262,131
2.61999999999999,298,1378,264,131
2.62999999999999,296,1376,270,130
2.63999999999999,294,1371,275,128
2.64999999999999,297,1373,272,129
2.65999999999999,298,1378,272,129
2.66999999999999,299,1375,270,130
2.67999999999999,300,1377,273,126
2.68999999999999,301,1379,272,125
2.69999999999999,299,1376,271,127
2.70999999999999,298,1374,273,127
2.71999999999999,297,1368,273,129
2.72999999999999,296,1367,271,131
2.73999999999999,294,1367,272,133
2.74999999999999,294,1364,271,134
2.75999999999999,289,1364,273,133
2.76999999999998,287,1361,274,134
2.77999999999998,287,1359,278,132
2.78999999999998,286,1358,275,134
2.79999999999998,285,1357,279,133
2.80999999999998,288,1363,275,133
2.81999999999998,287,1362,276,134
2.82999999999998,287,1359,276,135
2.83999999999998,286,1361,276,136
2.84999999999998,285,1360,276,137
2.85999999999998,287,1364,274,137
2.86999999999998,287,1364,274,137
2.87999999999998,286,1367,277,135
2.88999999999998,289,1366,277,133
2.89999999999998,292,1365,273,133
2.90999999999998,294,1363,271,133
2.91999999999998,297,1363,267,132
2.92999999999998,294,1358,270,133
2.93999999999998,290,1358,271,133
2.94999999999998,290,1356,279,130
2.95999999999998,291,1356,276,130
2.96999999999998,290,1355,276,130
2.97999999999998,292,1352,276,131
2.98999999999998,290,1354,278,130
2.99999999999998,291,1356,278,129
3.00999999999998,294,1356,272,132
3.01999999999998,294,1358,268,134
3.02999999999998,298,1356,266,135
3.03999999999998,302,1353,259,138
3.04999999999998,302,1352,254,142
3.05999999999998,304,1352,252,143
3.06999999999998,305,1351,251,143
3.07999999999998,302,1350,252,143
3.08999999999998,302,1349,255,142
3.09999999999998,298,1347,255,143
3.10999999999998,300,1347,253,142
3.11999999999998,299,1343,257,141
3.12999999999998,300,1339,261,139
3.13999999999998,305,1339,254,141
3.14999999999998,307,1344,251,141
3.15999999999998,310,1343,245,144
3.16999999999998,310,1351,244,145
3.17999999999998,309,1356,242,144
3.18999999999998,309,1356,247,141
3.19999999999998,312,1356,245,141
3.20999999999998,310,1356,247,140
3.21999999999998,305,1356,253,139
3.22999999999998,305,1356,256,137
3.23999999999997,307,1359,256,135
3.24999999999997,309,1357,255,133
3.25999999999997,308,1358,255,134
3.26999999999997,310,1358,254,135
3.27999999999997,310,1356,255,134
3.28999999999997,314,1358,252,134
3.29999999999997,317,1361,247,135
3.30999999999997,320,1364,247,130
3.31999999999997,317,1363,246,129
3.32999999999997,318,1359,245,131
3.33999999999997,320,1360,248,130
3.34999999999997,318,1363,248,130
3.35999999999997,321,1364,248,128
3.36999999999997,321,1364,247,131
3.37999999999997,320,1366,244,132
3.38999999999997,318,1363,248,131
3.39999999999997,319,1368,247,129
3.40999999999997,321,1368,251,127
3.41999999999997,317,1375,249,129
3.42999999999997,317,1375,252,128
3.43999999999997,317,1375,253,127
3.44999999999997,316,1375,252,128
3.45999999999997,314,1378,258,127
3.46999999999997,313,1378,259,128
3.47999999999997,315,1381,256,127
3.48999999999997,315,1382,258,126
3.49999999999997,318,1380,253,127
3.50999999999997,315,1376,256,127
3.51999999999997,315,1376,254,129
3.52999999999997,314,1380,253,128
3.53999999999997,313,1384,252,129
3.54999999999997,314,1379,252,130
3.55999999999997,311,1378,257,129
3.56999999999997,310,1379,257,131
3.57999999999997,306,1376,264,128
3.58999999999997,306,1379,263,127
3.59999999999997,306,1376,266,127
3.60999999999997,306,1378,263,128
3.61999999999997,305,1375,267,126
3.62999999999997,305,1372,265,128
3.63999999999997,304,1369,266,128
3.64999999999997,301,1366,268,128
3.65999999999997,301,1368,269,129
3.66999999999997,302,1370,266,129
3.67999999999997,302,1365,264,130
3.68999999999997,302,1368,263,131
3.69999999999997,300,1366,269,129
3.70999999999996,297,1369,272,128
3.71999999999996,294,1368,268,130
3.72999999999996,296,1363,268,130
3.73999999999996,293,1362,270,132
3.74999999999996,293,1365,271,133
3.75999999999996,297,1370,266,134
3.76999999999996,305,1370,257,136
3.77999999999996,303,1368,256,138
3.78999999999996,307,1365,254,139
3.79999999999996,306,1365,256,138
3.80999999999996,309,1370,250,139
3.81999999999996,307,1366,253,139
3.82999999999996,305,1366,252,140
3.83999999999996,309,1367,248,141
3.84999999999996,308,1371,248,141
3.85999999999996,310,1374,247,143
3.86999999999996,309,1376,244,144
3.87999999999996,309,1377,247,142
3.88999999999996,308,1376,249,140
3.89999999999996,307,1371,250,141
3.90999999999996,309,1371,250,140
3.91999999999996,309,1375,250,138
3.92999999999996,308,1372,252,138
3.93999999999996,309,1372,255,136
3.94999999999996,310,1371,255,133
3.95999999999996,307,1370,256,133
3.96999999999996,303,1366,259,135
3.97999999999996,299,1367,262,134
3.98999999999996,299,1366,267,132
3.99999999999996,297,1370,268,131
4.00999999999996,295,1364,274,129
4.01999999999996,296,1368,273,129
4.02999999999996,297,1368,272,128
4.03999999999996,290,1360,274,131
4.04999999999996,289,1359,278,132
4.05999999999996,289,1361,280,130
4.06999999999996,286,1363,281,131
4.07999999999996,286,1362,280,131
4.08999999999996,287,1363,279,131
4.09999999999996,286,1364,279,131
4.10999999999996,285,1364,278,131
4.11999999999996,288,1357,276,133
4.12999999999996,288,1354,274,134
4.13999999999996,288,1352,273,136
4.14999999999996,289,1353,270,137
4.15999999999996,292,1356,267,137
4.16999999999996,292,1357,266,137
4.17999999999996,295,1358,267,136
4.18999999999996,293,1355,266,137
4.19999999999995,297,1357,262,138
4.20999999999995,294,1352,265,139
4.21999999999995,295,1350,261,142
4.22999999999995,297,1348,258,143
4.23999999999995,296,1347,256,144
4.24999999999995,297,1343,252,148
4.25999999999995,294,1347,255,146
4.26999999999995,292,1346,254,148
4.27999999999995,294,1349,254,148
4.28999999999995,298,1348,254,147
4.29999999999995,298,1348,254,146
4.30999999999995,299,1348,252,147
4.31999999999995,299,1347,251,149
4.32999999999995,298,1348,251,149
4.33999999999995,298,1348,249,151
4.34999999999995,298,1348,251,149
4.35999999999995,298,1350,254,146
4.36999999999995,296,1347,257,145
4.37999999999995,297,1342,253,147
4.38999999999995,298,1340,254,146
4.39999999999995,300,1337,252,146
4.40999999999995,298,1342,253,146
4.41999999999995,299,1341,253,146
4.42999999999995,298,1341,254,146
4.43999999999995,298,1342,256,144
4.44999999999995,298,1342,257,142
4.45999999999995,297,1344,259,141
4.46999999999995,294,1345,260,142
4.47999999999995,297,1346,259,143
4.48999999999995,296,1352,261,142
4.49999999999995,296,1355,261,142
4.50999999999995,293,1355,264,141
4.51999999999995,292,1353,263,142
4.52999999999995,290,1352,262,142
4.53999999999995,288,1348,270,140
4.54999999999995,286,1348,272,138
4.55999999999995,288,1343,272,140
4.56999999999995,287,1343,271,141
4.57999999999995,286,1343,272,141
4.58999999999995,282,1341,276,141
4.59999999999995,286,1342,272,141
4.60999999999995,286,1340,272,141
4.61999999999995,285,1339,271,142
4.62999999999995,288,1338,270,141
4.63999999999995,286,1337,274,137
4.64999999999995,289,1334,269,140
4.65999999999995,288,1338,269,141
4.66999999999994,290,1342,267,140
4.67999999999994,290,1344,269,139
4.68999999999994,291,1342,270,138
4.69999999999994,291,1346,269,137
4.70999999999994,292,1341,271,137
4.71999999999994,292,1342,271,136
4.72999999999994,291,1339,273,135
4.73999999999994,291,1344,274,133
4.74999999999994,291,1343,276,132
4.75999999999994,292,1347,275,132
4.76999999999994,292,1347,275,132
4.77999999999994,293,1347,273,133
4.78999999999994,293,1348,273,134
4.79999999999994,295,1349,273,132
4.80999999999994,299,1351,269,132
4.81999999999994,297,1354,271,129
4.82999999999994,296,1353,275,128
4.83999999999994,295,1351,274,127
4.84999999999994,295,1354,273,127
4.85999999999994,290,1351,272,130
4.86999999999994,292,1349,275,128
4.87999999999994,295,1351,271,128
4.88999999999994,296,1349,273,128
4.89999999999994,294,1345,276,130
4.90999999999994,297,1347,273,129
4.91999999999994,296,1346,275,129
4.92999999999994,297,1350,274,129
4.93999999999994,295,1346,275,130
4.94999999999994,292,1347,275,131
4.95999999999994,294,1344,274,131
4.96999999999994,295,1349,272,131
4.97999999999994,298,1348,270,132
4.98999999999994,302,1351,266,132
4.99999999999994,299,1349,267,133
5.00999999999994,297,1347,269,133
5.01999999999994,300,1352,265,134
5.02999999999994,299,1348,268,132
5.03999999999994,306,1351,262,132
5.04999999999994,308,1352,261,131
5.05999999999994,305,1354,264,129
5.06999999999994,303,1356,268,126
5.07999999999994,301,1356,269,127
5.08999999999994,301,1358,266,128
5.09999999999994,303,1363,266,128
5.10999999999994,305,1366,264,128
5.11999999999994,308,1368,262,128
5.12999999999994,305,1368,264,127
5.13999999999993,311,1369,261,127
5.14999999999993,314,1373,257,127
5.15999999999993,316,1374,256,127
5.16999999999993,315,1373,256,127
5.17999999999993,315,1372,254,128
5.18999999999993,317,1368,252,129
5.19999999999993,317,1370,251,128
5.20999999999993,318,1371,252,128
5.21999999999993,317,1371,252,129
5.22999999999993,319,1371,251,130
5.23999999999993,321,1375,250,129
5.24999999999993,325,1378,247,128
5.25999999999993,324,1382,250,126
5.26999999999993,324,1384,253,123
5.27999999999993,322,1384,250,125
5.28999999999993,324,1386,250,124
5.29999999999993,325,1385,246,127
5.30999999999993,323,1382,250,127
5.31999999999993,318,1378,252,127
5.32999999999993,316,1377,256,126
5.33999999999993,318,1382,252,127
5.34999999999993,319,1384,250,126
5.35999999999993,317,1387,254,126
5.36999999999993,322,1389,250,126
5.37999999999993,321,1388,250,128
5.38999999999993,319,1387,248,131
5.39999999999993,314,1386,250,130
5.40999999999993,316,1389,250,129
5.41999999999993,318,1384,253,128
5.42999999999993,320,1383,250,128
5.43999999999993,318,1386,249,129
5.44999999999993,313,1380,254,129
5.45999999999993,313,1379,257,127
5.46999999999993,313,1378,261,126
5.47999999999993,314,1384,262,123
5.48999999999993,314,1383,259,125
5.49999999999993,316,1383,256,126
5.50999999999993,316,1383,257,126
5.51999999999993,318,1385,255,123
5.52999999999993,316,1385,256,124
5.53999999999993,314,1386,257,124
5.54999999999993,313,1388,259,124
5.55999999999993,310,1387,268,121
5.56999999999993,308,1387,267,122
5.57999999999993,307,1387,271,120
5.58999999999993,305,1381,269,124
5.59999999999993,308,1387,269,122
5.60999999999992,308,1385,270,121
5.61999999999992,309,1387,266,122
5.62999999999992,308,1389,270,120
5.63999999999992,304,1385,271,123
5.64999999999992,306,1386,270,124
5.65999999999992,308,1385,268,123
5.66999999999992,310,1384,265,124
5.67999999999992,311,1388,264,124
5.68999999999992,311,1389,262,124
5.69999999999992,311,1390,267,120
5.70999999999992,313,1387,270,117
5.71999999999992,310,1384,268,118
5.72999999999992,309,1384,272,118
5.73999999999992,309,1386,270,117
5.74999999999992,310,1385,268,118
5.75999999999992,312,1386,266,120
5.76999999999992,311,1384,267,119
5.77999999999992,310,1381,268,120
5.78999999999992,307,1385,270,120
5.79999999999992,308,1386,267,123
5.80999999999992,303,1384,273,121
5.81999999999992,307,1381,271,120
5.82999999999992,309,1380,267,121
5.83999999999992,307,1382,269,121
5.84999999999992,307,1382,269,120
5.85999999999992,306,1378,273,119
5.86999999999992,307,1376,268,124
5.87999999999992,302,1374,273,124
5.88999999999992,305,1371,268,127
5.89999999999992,306,1373,266,127
5.90999999999992,305,1371,267,127
5.91999999999992,305,1371,269,126
5.92999999999992,304,1371,272,124
5.93999999999992,306,1373,271,123
5.94999999999992,301,1377,275,121
5.95999999999992,304,1374,271,124
5.96999999999992,306,1378,271,122
5.97999999999992,303,1377,275,121
5.98999999999992,299,1371,277,122
5.99999999999992,296,1371,280,123
6.00999999999992,296,1372,280,122
6.01999999999992,298,1367,279,123
6.02999999999992,299,1365,278,122
6.03999999999992,299,1365,276,124
6.04999999999992,300,1365,274,125
6.05999999999992,299,1367,274,124
6.06999999999992,297,1365,276,124
6.07999999999991,296,1366,277,124
6.08999999999991,293,1366,279,123
6.09999999999991,296,1368,277,123
6.10999999999991,295,1366,279,122
6.11999999999991,293,1367,285,118
6.12999999999991,298,1367,282,118
6.13999999999991,297,1365,286,116
6.14999999999991,296,1367,287,116
6.15999999999991,297,1365,283,118
6.16999999999991,301,1362,278,119
6.17999999999991,300,1360,277,119
6.18999999999991,299,1359,275,121
6.19999999999991,300,1363,275,120
6.20999999999991,301,1362,275,122
6.21999999999991,303,1366,275,121
6.22999999999991,303,1368,276,119
6.23999999999991,302,1370,276,120
6.24999999999991,304,1372,272,122
6.25999999999991,303,1373,272,123
6.26999999999991,303,1374,274,122
6.27999999999991,300,1372,271,124
6.28999999999991,301,1373,269,125
6.29999999999991,301,1369,271,125
6.30999999999991,298,1369,272,125
6.31999999999991,298,1368,273,126
6.32999999999991,298,1371,275,126
6.33999999999991,298,1370,274,127
6.34999999999991,294,1366,277,128
6.35999999999991,299,1369,271,128
6.36999999999991,301,1368,268,128
6.37999999999991,308,1365,264,128
6.38999999999991,309,1366,264,126
6.39999999999991,310,1368,262,126
6.40999999999991,307,1367,266,125
6.41999999999991,306,1370,266,125
6.42999999999991,306,1366,269,125
6.43999999999991,307,1367,269,123
6.44999999999991,311,1367,264,123
6.45999999999991,315,1366,261,122
6.46999999999991,316,1368,262,121
6.47999999999991,316,1374,263,121
6.48999999999991,318,1376,258,122
6.49999999999991,319,1378,258,122
6.50999999999991,318,1378,256,125
6.51999999999991,317,1378,257,124
6.52999999999991,317,1376,258,122
6.53999999999991,316,1374,256,123
6.5499999999999,313,1369,260,124
6.5599999999999,313,1368,263,123
6.5699999999999,312,1364,263,124
6.5799999999999,308,1363,265,126
6.5899999999999,312,1370,260,127
6.5999999999999,311,1371,261,126
6.6099999999999,313,1370,260,126
6.6199999999999,310,1370,259,127
6.6299999999999,308,1372,260,127
6.6399999999999,304,1369,263,129
6.6499999999999,304,1369,266,127
6.6599999999999,303,1364,271,125
