#log interval=0.01,world length_x=228.266,world length_y=53.4641,world length_z=54,voxel radius=1e-08,[/Surface:MinEE][3]=1e-08,[/Surface:MinD][4]=1e-08,[/Surface:MinDEE][5]=1e-08,[/Surface:MinDEED][6]=1e-08
1e-100,0,0,700,0
0.01,8,0,692,0
0.02,16,0,684,0
0.03,22,1,678,0
0.04,30,2,670,0
0.05,36,2,664,0
0.06,42,2,658,0
0.07,45,3,655,0
0.08,53,4,646,0
0.09,60,5,639,0
0.1,66,5,633,0
0.11,71,5,628,0
0.12,79,6,620,0
0.13,91,6,608,0
0.14,97,6,600,0
0.15,102,6,593,0
0.16,109,7,585,0
0.17,117,8,576,0
0.18,124,8,569,0
0.19,129,10,564,0
0.2,133,11,559,0
0.21,134,11,557,0
0.22,141,13,550,0
0.23,152,14,539,0
0.24,154,16,535,0
0.25,157,18,530,0
0.26,163,20,524,0
0.27,166,24,518,0
0.28,170,28,514,0
0.29,176,29,507,0
0.3,179,35,502,0
0.31,180,45,498,0
0.32,183,48,496,0
0.33,186,55,492,0
0.34,189,58,490,0
0.35,192,63,487,0
0.36,194,72,485,0
0.37,196,80,484,0
0.38,201,94,476,0
0.39,205,107,473,0
0.4,208,119,468,0
0.41,213,128,463,0
0.42,213,138,465,0
0.43,219,155,460,0
0.44,221,170,459,0
0.45,225,189,455,2
0.46,230,209,450,2
0.47,231,232,448,2
0.48,231,260,450,3
0.49,232,296,449,2
0.5,236,328,446,2
0.51,236,351,441,5
0.52,237,376,442,5
0.53,242,399,438,6
0.54,244,438,436,6
0.55,240,476,438,6
0.56,244,507,434,8
0.57,249,540,427,9
0.58,253,580,421,13
0.59,253,613,421,14
0.6,250,661,421,14
0.61,254,700,416,16
0.62,258,731,411,17
0.63,262,758,409,18
0.64,264,804,409,21
0.65,265,843,408,22
0.66,267,879,403,24
0.67,269,907,399,24
0.68,271,947,393,27
0.69,278,980,383,31
0.7,279,1014,380,33
0.71,279,1035,379,34
0.72,277,1073,373,38
0.73,276,1107,370,39
0.74,277,1135,369,39
0.75,281,1162,368,39
0.76,287,1179,365,39
0.77,285,1196,365,42
0.78,287,1211,365,42
0.79,284,1228,365,45
0.8,283,1243,365,45
0.81,284,1254,359,49
0.820000000000001,282,1268,357,51
0.830000000000001,280,1278,355,55
0.840000000000001,286,1282,352,55
0.850000000000001,291,1302,347,55
0.860000000000001,296,1313,340,57
0.870000000000001,297,1324,340,56
0.880000000000001,298,1338,338,56
0.890000000000001,300,1345,335,56
0.900000000000001,304,1353,331,57
0.910000000000001,307,1365,325,58
0.920000000000001,306,1366,325,60
0.930000000000001,305,1370,324,62
0.940000000000001,307,1376,323,62
0.950000000000001,308,1383,322,62
0.960000000000001,305,1389,325,61
0.970000000000001,303,1388,322,63
0.980000000000001,306,1391,324,62
0.990000000000001,305,1393,324,64
1,303,1393,324,65
1.01,300,1397,324,65
1.02,305,1399,320,67
1.03,311,1398,315,69
1.04,308,1395,315,70
1.05,309,1398,314,70
1.06,310,1405,314,69
1.07,309,1408,315,71
1.08,310,1408,314,71
1.09,313,1411,313,72
1.1,312,1419,313,72
1.11,310,1419,314,72
1.12,312,1419,315,71
1.13,313,1420,310,72
1.14,314,1419,307,74
1.15,314,1418,302,78
1.16,316,1413,297,80
1.17,316,1411,301,80
1.18,321,1412,286,87
1.19,320,1411,286,88
1.2,322,1407,285,88
1.21,319,1407,286,88
1.22,322,1407,281,88
1.23,319,1408,284,86
1.24,319,1407,281,89
1.25,322,1410,281,89
1.26,319,1409,284,88
1.27,322,1407,282,90
1.28,320,1405,283,90
1.29,319,1401,283,92
1.3,320,1405,281,92
1.31,319,1402,280,95
1.32,320,1401,277,97
1.33,322,1404,274,96
1.34,323,1402,270,98
1.35,323,1395,276,97
1.36,321,1399,279,96
1.37,324,1401,274,98
1.38,323,1407,273,98
1.39,326,1408,271,97
1.4,327,1406,265,102
1.41,326,1402,266,103
1.42,330,1403,261,103
1.43,329,1401,263,103
1.44,330,1400,259,104
1.45,324,1396,263,105
1.46,326,1400,256,109
1.47,323,1398,258,109
1.48,325,1396,262,106
1.49,325,1392,260,107
1.5,326,1393,255,110
1.51,328,1400,256,110
1.52,329,1402,255,110
1.53,324,1405,258,110
1.54,326,1410,258,109
1.55,326,1412,256,110
1.56,326,1413,255,111
1.57,324,1411,258,110
1.58,327,1404,255,113
1.59,333,1403,252,114
1.6,333,1405,248,117
1.61,336,1407,246,117
1.62,338,1406,242,120
1.63,340,1409,241,118
1.64,337,1403,240,122
1.65,331,1404,243,122
1.66,331,1404,243,122
1.67,331,1402,243,124
1.68,334,1406,238,126
1.69,332,1408,239,126
1.7,333,1406,235,128
1.71,336,1406,235,127
1.72,333,1406,236,127
1.73,332,1408,237,126
1.74,330,1412,237,125
1.75,329,1415,238,123
1.76,328,1411,242,121
1.77,325,1407,245,120
1.78,324,1405,244,121
1.79,325,1401,250,118
1.8,320,1403,253,119
1.81,318,1403,253,120
1.82,311,1403,259,118
1.83,310,1399,261,119
1.84,312,1398,260,120
1.85,312,1403,259,121
1.86,312,1401,259,121
1.87,309,1399,264,121
1.88,310,1398,264,122
1.89,313,1396,261,123
1.9,314,1394,260,124
1.91,313,1392,258,124
1.92,310,1388,260,125
1.93,311,1386,256,127
1.94,314,1387,260,123
1.95,312,1386,259,125
1.96,314,1385,259,123
1.97,313,1383,260,122
1.98,317,1382,259,120
1.99,319,1386,259,119
2,317,1387,260,119
2.01,320,1386,257,119
2.02,323,1386,254,119
2.03,322,1386,252,120
2.04,323,1385,251,121
2.05,320,1382,249,126
2.06,319,1383,249,128
2.07,318,1385,247,129
2.08,318,1389,246,129
2.09,317,1385,252,128
2.1,318,1388,253,127
2.11,317,1391,253,126
2.12,317,1392,253,127
2.13,314,1392,254,127
2.14,309,1390,257,127
2.15,307,1390,260,126
2.16,306,1393,258,126
2.17,305,1394,258,128
2.18,305,1389,257,130
2.19,305,1390,259,129
2.2,305,1391,257,130
2.21,306,1387,260,130
2.22,308,1386,258,130
2.23,311,1387,257,129
2.24,308,1385,256,131
2.25,309,1386,252,132
2.26,308,1384,254,130
2.27,310,1380,252,132
2.28,308,1377,255,130
2.29,307,1375,255,129
2.29999999999999,307,1375,257,129
2.30999999999999,306,1370,256,132
2.31999999999999,306,1367,255,135
2.32999999999999,305,1363,257,134
2.33999999999999,305,1364,253,137
2.34999999999999,304,1361,258,136
2.35999999999999,305,1361,255,138
2.36999999999999,302,1363,253,140
2.37999999999999,303,1361,254,138
2.38999999999999,302,1364,255,136
2.39999999999999,305,1361,251,139
2.40999999999999,304,1364,251,139
2.41999999999999,303,1364,249,140
2.42999999999999,304,1362,253,138
2.43999999999999,302,1369,257,134
2.44999999999999,300,1368,261,133
2.45999999999999,300,1368,261,133
2.46999999999999,304,1365,257,135
2.47999999999999,302,1362,257,135
2.48999999999999,302,1362,257,135
2.49999999999999,302,1365,257,136
2.50999999999999,299,1360,259,138
2.51999999999999,300,1364,261,136
2.52999999999999,298,1362,258,139
2.53999999999999,294,1365,259,139
2.54999999999999,296,1360,261,139
2.55999999999999,298,1359,258,140
2.56999999999999,297,1362,257,140
2.57999999999999,293,1361,262,139
2.58999999999999,293,1359,259,140
2.59999999999999,296,1361,256,140
2.60999999999999,294,1364,260,137
2.61999999999999,294,1362,261,138
2.62999999999999,291,1363,265,136
2.63999999999999,293,1364,263,135
2.64999999999999,293,1359,263,138
2.65999999999999,296,1361,262,138
2.66999999999999,297,1359,261,138
2.67999999999999,303,1356,255,139
2.68999999999999,302,1355,256,138
2.69999999999999,304,1356,254,137
2.70999999999999,308,1351,250,140
2.71999999999999,308,1353,248,139
2.72999999999999,310,1355,249,138
2.73999999999999,308,1355,251,137
2.74999999999999,308,1357,249,138
2.75999999999999,307,1355,248,139
2.76999999999998,306,1355,246,141
2.77999999999998,304,1356,250,141
2.78999999999998,304,1356,250,142
2.79999999999998,303,1356,249,142
2.80999999999998,300,1356,250,142
2.81999999999998,297,1356,252,142
2.82999999999998,298,1360,251,143
2.83999999999998,298,1357,252,143
2.84999999999998,296,1357,253,143
2.85999999999998,296,1358,256,142
2.86999999999998,294,1357,254,143
2.87999999999998,294,1353,255,144
2.88999999999998,294,1351,254,144
2.89999999999998,297,1350,253,145
2.90999999999998,299,1348,255,144
2.91999999999998,299,1350,256,142
2.92999999999998,302,1348,253,142
2.93999999999998,303,1351,249,144
2.94999999999998,307,1353,244,144
2.95999999999998,306,1356,246,142
2.96999999999998,305,1356,246,143
2.97999999999998,307,1355,244,143
2.98999999999998,311,1360,244,141
2.99999999999998,312,1362,242,142
3.00999999999998,310,1365,246,140
3.01999999999998,308,1367,248,140
3.02999999999998,304,1367,251,140
3.03999999999998,301,1365,253,140
3.04999999999998,304,1370,249,140
3.05999999999998,306,1373,249,139
3.06999999999998,308,1374,249,137
3.07999999999998,307,1373,246,138
3.08999999999998,308,1372,250,137
3.09999999999998,309,1374,251,137
3.10999999999998,305,1375,255,134
3.11999999999998,300,1372,258,135
3.12999999999998,300,1371,263,133
3.13999999999998,304,1372,261,133
3.14999999999998,303,1372,257,136
3.15999999999998,304,1370,255,137
3.16999999999998,304,1371,253,138
3.17999999999998,307,1369,249,141
3.18999999999998,306,1371,246,143
3.19999999999998,308,1372,243,142
3.20999999999998,308,1371,245,141
3.21999999999998,307,1368,249,141
3.22999999999998,304,1369,251,140
3.23999999999997,308,1368,248,140
3.24999999999997,306,1367,249,140
3.25999999999997,305,1366,252,141
3.26999999999997,306,1369,250,141
3.27999999999997,305,1366,252,141
3.28999999999997,305,1371,249,142
3.29999999999997,306,1370,246,145
3.30999999999997,309,1372,244,144
3.31999999999997,312,1370,241,145
3.32999999999997,316,1368,238,144
3.33999999999997,315,1369,242,141
3.34999999999997,315,1367,241,141
3.35999999999997,314,1371,241,142
3.36999999999997,313,1371,243,141
3.37999999999997,312,1372,243,141
3.38999999999997,311,1373,246,141
3.39999999999997,312,1369,244,142
3.40999999999997,311,1368,242,144
3.41999999999997,313,1366,238,146
3.42999999999997,313,1368,238,147
3.43999999999997,314,1368,237,149
3.44999999999997,311,1365,238,151
3.45999999999997,309,1365,235,154
3.46999999999997,310,1367,234,152
3.47999999999997,310,1364,237,150
3.48999999999997,308,1361,238,152
3.49999999999997,310,1362,235,151
3.50999999999997,306,1361,239,151
3.51999999999997,305,1360,241,149
3.52999999999997,305,1359,244,147
3.53999999999997,303,1356,244,148
3.54999999999997,303,1354,247,147
3.55999999999997,303,1356,246,147
3.56999999999997,303,1360,249,144
3.57999999999997,302,1358,244,148
3.58999999999997,302,1355,244,149
3.59999999999997,300,1353,245,148
3.60999999999997,299,1351,245,149
3.61999999999997,301,1355,245,147
3.62999999999997,303,1355,243,147
3.63999999999997,302,1348,243,150
3.64999999999997,302,1350,242,151
3.65999999999997,304,1354,239,152
3.66999999999997,300,1348,241,154
3.67999999999997,304,1345,237,155
3.68999999999997,302,1342,244,151
3.69999999999997,301,1340,246,151
3.70999999999996,298,1340,246,152
3.71999999999996,298,1341,247,151
3.72999999999996,295,1336,251,153
3.73999999999996,297,1338,246,155
3.74999999999996,295,1336,247,155
3.75999999999996,293,1338,249,154
3.76999999999996,288,1332,252,155
3.77999999999996,286,1332,257,154
3.78999999999996,289,1333,254,153
3.79999999999996,292,1329,251,156
3.80999999999996,289,1327,256,155
3.81999999999996,289,1329,254,156
3.82999999999996,287,1332,254,155
3.83999999999996,291,1330,252,156
3.84999999999996,290,1330,251,157
3.85999999999996,291,1330,247,160
3.86999999999996,286,1327,246,164
3.87999999999996,285,1331,245,163
3.88999999999996,283,1325,250,163
3.89999999999996,282,1323,250,164
3.90999999999996,280,1321,253,162
3.91999999999996,280,1319,254,161
3.92999999999996,281,1319,251,164
3.93999999999996,285,1319,245,166
3.94999999999996,283,1319,246,164
3.95999999999996,283,1316,243,166
3.96999999999996,283,1315,240,168
3.97999999999996,283,1311,241,169
3.98999999999996,284,1309,242,169
3.99999999999996,283,1310,246,167
4.00999999999996,286,1311,247,166
4.01999999999996,286,1311,245,167
4.02999999999996,287,1316,241,168
4.03999999999996,286,1313,242,169
4.04999999999996,283,1312,242,170
4.05999999999996,285,1315,243,169
4.06999999999996,281,1313,247,167
4.07999999999996,283,1314,246,167
4.08999999999996,282,1312,246,167
4.09999999999996,281,1306,249,166
4.10999999999996,283,1309,251,163
4.11999999999996,281,1314,254,160
4.12999999999996,279,1310,259,158
4.13999999999996,278,1306,260,158
4.14999999999996,275,1304,262,156
4.15999999999996,276,1304,266,155
4.16999999999996,276,1304,266,156
4.17999999999996,278,1304,260,160
4.18999999999996,280,1304,259,160
4.19999999999995,279,1307,258,161
4.20999999999995,280,1303,257,162
4.21999999999995,278,1304,258,162
4.22999999999995,278,1306,256,164
4.23999999999995,276,1313,256,163
4.24999999999995,276,1311,261,161
4.25999999999995,276,1313,261,162
4.26999999999995,274,1308,258,165
4.27999999999995,274,1306,258,165
4.28999999999995,273,1308,263,162
4.29999999999995,273,1311,263,160
4.30999999999995,276,1306,258,164
4.31999999999995,275,1305,261,163
4.32999999999995,275,1306,263,160
4.33999999999995,276,1307,260,161
4.34999999999995,275,1304,259,161
4.35999999999995,273,1299,261,160
4.36999999999995,274,1294,262,161
4.37999999999995,273,1291,261,162
4.38999999999995,268,1290,264,162
4.39999999999995,270,1292,264,160
4.40999999999995,271,1293,268,159
4.41999999999995,273,1291,265,160
4.42999999999995,276,1293,263,159
4.43999999999995,278,1292,261,160
4.44999999999995,279,1291,260,160
4.45999999999995,281,1289,258,161
4.46999999999995,284,1293,260,156
4.47999999999995,288,1293,253,157
4.48999999999995,291,1291,248,158
4.49999999999995,290,1289,252,157
4.50999999999995,290,1292,250,157
4.51999999999995,291,1290,247,159
4.52999999999995,289,1298,246,159
4.53999999999995,287,1298,251,157
4.54999999999995,290,1299,248,157
4.55999999999995,290,1300,249,156
4.56999999999995,289,1300,248,157
4.57999999999995,290,1299,248,157
4.58999999999995,288,1298,249,157
4.59999999999995,287,1298,250,157
4.60999999999995,288,1302,250,157
4.61999999999995,287,1301,252,157
4.62999999999995,284,1301,257,156
4.63999999999995,283,1298,254,160
4.64999999999995,284,1297,247,164
4.65999999999995,283,1297,248,164
4.66999999999994,289,1297,243,165
4.67999999999994,292,1299,243,164
4.68999999999994,293,1299,240,165
4.69999999999994,297,1303,238,164
4.70999999999994,299,1306,237,162
4.71999999999994,295,1309,241,161
4.72999999999994,298,1312,238,162
4.73999999999994,301,1310,235,164
4.74999999999994,297,1309,237,163
4.75999999999994,300,1307,239,160
4.76999999999994,301,1306,239,159
4.77999999999994,298,1310,239,159
4.78999999999994,298,1305,241,160
4.79999999999994,298,1302,240,161
4.80999999999994,297,1306,238,162
4.81999999999994,299,1302,236,165
4.82999999999994,297,1300,236,166
4.83999999999994,299,1302,233,166
4.84999999999994,297,1306,233,166
4.85999999999994,297,1303,237,162
4.86999999999994,299,1306,236,161
4.87999999999994,296,1301,240,160
4.88999999999994,294,1301,245,158
4.89999999999994,295,1303,248,156
4.90999999999994,298,1310,245,156
4.91999999999994,297,1313,248,153
4.92999999999994,298,1315,246,154
4.93999999999994,300,1313,244,155
4.94999999999994,297,1316,243,154
4.95999999999994,299,1316,246,153
4.96999999999994,297,1313,246,154
4.97999999999994,295,1313,248,154
4.98999999999994,297,1318,249,151
4.99999999999994,295,1318,250,151
5.00999999999994,292,1315,251,151
5.01999999999994,292,1320,255,150
5.02999999999994,294,1321,253,150
5.03999999999994,298,1318,249,151
5.04999999999994,299,1319,247,151
5.05999999999994,297,1316,247,152
5.06999999999994,301,1319,242,153
5.07999999999994,300,1320,242,154
5.08999999999994,295,1321,246,154
5.09999999999994,294,1318,243,157
5.10999999999994,298,1312,237,161
5.11999999999994,299,1315,233,162
5.12999999999994,295,1313,236,163
5.13999999999993,296,1309,239,163
5.14999999999993,296,1306,239,163
5.15999999999993,295,1306,241,163
5.16999999999993,295,1305,237,166
5.17999999999993,295,1306,241,164
5.18999999999993,298,1307,239,163
5.19999999999993,300,1309,238,160
5.20999999999993,300,1311,239,158
5.21999999999993,299,1312,242,157
5.22999999999993,295,1314,244,158
5.23999999999993,296,1313,244,158
5.24999999999993,293,1315,247,157
5.25999999999993,292,1318,249,156
5.26999999999993,291,1322,250,155
5.27999999999993,291,1324,251,154
5.28999999999993,290,1324,254,152
5.29999999999993,291,1323,256,151
5.30999999999993,292,1326,252,153
5.31999999999993,292,1328,249,154
5.32999999999993,289,1329,248,156
5.33999999999993,287,1326,255,154
5.34999999999993,289,1333,256,151
5.35999999999993,285,1334,257,153
5.36999999999993,282,1333,257,155
5.37999999999993,282,1331,259,157
5.38999999999993,286,1333,256,157
5.39999999999993,286,1334,255,156
5.40999999999993,288,1335,253,156
5.41999999999993,294,1338,248,154
5.42999999999993,296,1338,248,152
5.43999999999993,296,1339,248,150
5.44999999999993,294,1340,248,149
5.45999999999993,295,1334,252,149
5.46999999999993,295,1333,251,152
5.47999999999993,290,1335,252,153
5.48999999999993,290,1334,252,153
5.49999999999993,293,1336,248,154
5.50999999999993,291,1335,252,152
5.51999999999993,290,1335,254,151
5.52999999999993,293,1341,250,152
5.53999999999993,294,1345,248,151
5.54999999999993,295,1340,245,153
5.55999999999993,291,1335,253,150
5.56999999999993,291,1338,254,150
5.57999999999993,289,1335,254,151
5.58999999999993,291,1335,253,152
5.59999999999993,296,1337,251,150
5.60999999999992,297,1339,252,149
5.61999999999992,295,1337,251,152
5.62999999999992,296,1337,249,151
5.63999999999992,295,1335,252,150
5.64999999999992,299,1334,249,149
5.65999999999992,299,1335,244,151
5.66999999999992,297,1335,246,149
5.67999999999992,297,1330,253,147
5.68999999999992,297,1326,255,147
5.69999999999992,296,1324,255,148
5.70999999999992,296,1324,253,150
5.71999999999992,296,1319,253,150
5.72999999999992,296,1316,254,149
5.73999999999992,294,1316,255,150
5.74999999999992,294,1318,252,151
5.75999999999992,298,1316,252,149
5.76999999999992,296,1316,250,151
5.77999999999992,298,1318,252,148
5.78999999999992,302,1325,247,149
5.79999999999992,303,1324,249,147
5.80999999999992,304,1325,250,146
5.81999999999992,303,1328,251,145
5.82999999999992,304,1329,251,143
5.83999999999992,302,1332,253,144
5.84999999999992,304,1336,251,145
5.85999999999992,301,1339,255,143
5.86999999999992,301,1340,254,144
5.87999999999992,300,1345,252,146
5.88999999999992,298,1343,250,147
5.89999999999992,299,1342,252,145
5.90999999999992,298,1345,255,144
5.91999999999992,298,1346,254,145
5.92999999999992,298,1352,252,147
5.93999999999992,297,1352,254,147
5.94999999999992,300,1353,251,148
5.95999999999992,299,1352,253,147
5.96999999999992,297,1351,257,145
5.97999999999992,295,1351,261,143
5.98999999999992,292,1354,263,142
5.99999999999992,291,1354,262,144
6.00999999999992,290,1355,265,143
6.01999999999992,293,1354,260,145
6.02999999999992,293,1354,260,145
6.03999999999992,295,1352,257,148
6.04999999999992,294,1353,254,149
6.05999999999992,298,1350,251,150
6.06999999999992,298,1352,248,149
6.07999999999991,293,1354,250,148
6.08999999999991,294,1356,252,147
6.09999999999991,291,1352,259,145
6.10999999999991,290,1352,260,144
6.11999999999991,291,1354,259,144
6.12999999999991,293,1350,256,146
6.13999999999991,296,1349,254,147
6.14999999999991,293,1347,258,146
6.15999999999991,290,1346,256,149
6.16999999999991,290,1347,258,148
6.17999999999991,289,1344,257,148
6.18999999999991,290,1342,257,148
6.19999999999991,289,1345,260,147
6.20999999999991,289,1345,257,149
6.21999999999991,292,1342,255,149
6.22999999999991,292,1341,254,150
6.23999999999991,291,1340,258,149
6.24999999999991,292,1342,257,150
6.25999999999991,292,1345,257,149
6.26999999999991,295,1347,256,147
6.27999999999991,298,1352,253,146
6.28999999999991,299,1352,251,147
6.29999999999991,298,1349,254,146
6.30999999999991,301,1348,250,145
6.31999999999991,302,1344,249,147
6.32999999999991,300,1345,248,147
6.33999999999991,297,1343,251,147
6.34999999999991,296,1341,255,146
6.35999999999991,293,1337,255,147
6.36999999999991,292,1335,257,148
6.37999999999991,296,1337,254,147
6.38999999999991,297,1336,254,147
6.39999999999991,298,1338,250,148
6.40999999999991,303,1338,244,150
6.41999999999991,301,1334,241,153
6.42999999999991,301,1335,242,153
6.43999999999991,303,1335,241,153
6.44999999999991,302,1336,244,151
6.45999999999991,308,1343,242,148
6.46999999999991,308,1342,241,146
6.47999999999991,307,1342,244,145
6.48999999999991,307,1347,244,144
6.49999999999991,303,1341,246,146
6.50999999999991,306,1336,246,146
6.51999999999991,302,1338,248,146
6.52999999999991,306,1331,249,145
6.53999999999991,307,1334,246,146
6.5499999999999,306,1328,245,148
6.5599999999999,306,1326,244,149
6.5699999999999,306,1331,244,148
6.5799999999999,304,1332,245,148
6.5899999999999,303,1331,248,146
6.5999999999999,301,1331,253,146
6.6099999999999,299,1331,255,145
6.6199999999999,298,1332,254,146
6.6299999999999,296,1330,257,145
6.6399999999999,294,1330,257,147
6.6499999999999,294,1330,258,147
6.6599999999999,293,1334,260,146
